Sensed force
0.000999927520752 -8.5103e-09 -0.557991 -1.98511 -0.173524 -0.141405 -0.0100365
0.0019998550415 -8.5103e-09 -0.557991 -1.98511 -0.173524 -0.141405 -0.0100365
0.00299978256226 -8.5103e-09 -0.557991 -1.98511 -0.173524 -0.141405 -0.0100365
0.00399971008301 2.23355e-09 -0.558746 -1.98511 -0.173473 -0.141382 -0.0101117
0.00499963760376 8.94471e-09 -0.561103 -1.98511 -0.173562 -0.14139 -0.010106
0.00599956512451 1.25304e-08 -0.564751 -1.98511 -0.173787 -0.141377 -0.0100226
0.00699949264526 1.38234e-08 -0.568481 -1.98511 -0.174082 -0.141352 -0.00989614
0.00799942016602 1.35422e-08 -0.571055 -1.98511 -0.174362 -0.141361 -0.0097522
0.00899934768677 1.2274e-08 -0.572228 -1.98511 -0.174591 -0.141409 -0.00959555
0.00999927520752 1.04746e-08 -0.572407 -1.98511 -0.17477 -0.141478 -0.00943025
0.0109992027283 8.47911e-09 -0.571935 -1.98511 -0.174884 -0.141556 -0.00928576
0.011999130249 6.51813e-09 -0.571083 -1.98511 -0.174911 -0.141652 -0.0091793
0.0129990577698 4.73683e-09 -0.569602 -1.98511 -0.17488 -0.14181 -0.00911885
0.0139989852905 3.21387e-09 -0.567383 -1.98511 -0.174851 -0.142014 -0.00911892
0.0149989128113 3.21387e-09 -0.567383 -1.98511 -0.174851 -0.142014 -0.00911892
0.015998840332 1.97893e-09 -0.565322 -1.98511 -0.174843 -0.142154 -0.00917087
0.0169987678528 1.02793e-09 -0.564436 -1.98511 -0.174867 -0.142166 -0.00925192
0.0179986953735 3.35421e-10 -0.565283 -1.98511 -0.174947 -0.142074 -0.00934513
0.0189986228943 3.35421e-10 -0.565283 -1.98511 -0.174947 -0.142074 -0.00934513
0.019998550415 3.35421e-10 -0.565283 -1.98511 -0.174947 -0.142074 -0.00934513
0.0209984779358 3.35421e-10 -0.565283 -1.98511 -0.174947 -0.142074 -0.00934513
0.0219984054565 0.000454477 -0.567628 -1.98511 -0.175054 -0.141942 -0.00942556
0.0229983329773 0.0016184 -0.570744 -1.98511 -0.175154 -0.141815 -0.00947827
0.023998260498 0.00314383 -0.574105 -1.98511 -0.175259 -0.141682 -0.00950897
0.0249981880188 0.00523304 -0.577807 -1.98511 -0.175376 -0.141537 -0.00952308
0.0259981155396 0.00797049 -0.582338 -1.98511 -0.175491 -0.141395 -0.00952542
0.0269980430603 0.0109038 -0.587037 -1.98511 -0.175615 -0.141267 -0.00952002
0.0279979705811 0.0132725 -0.591012 -1.98511 -0.17577 -0.141158 -0.0095101
0.0289978981018 0.0146345 -0.594658 -1.98511 -0.175951 -0.141051 -0.00948499
0.0299978256226 0.0156957 -0.598253 -1.98511 -0.176133 -0.140915 -0.00943909
0.0309977531433 0.0164789 -0.601527 -1.98511 -0.176302 -0.140752 -0.00938354
0.0319976806641 0.0165664 -0.604333 -1.98511 -0.176449 -0.140585 -0.00932626
0.0329976081848 0.0165664 -0.604333 -1.98511 -0.176449 -0.140585 -0.00932626
0.0339975357056 0.0171919 -0.60837 -1.98511 -0.176664 -0.140292 -0.00922526
0.0349974632263 0.0171919 -0.60837 -1.98511 -0.176664 -0.140292 -0.00922526
0.0359973907471 0.017973 -0.609654 -1.98511 -0.176734 -0.140179 -0.00918604
0.0369973182678 0.017973 -0.609654 -1.98511 -0.176734 -0.140179 -0.00918604
0.0379972457886 0.017973 -0.609654 -1.98511 -0.176734 -0.140179 -0.00918604
0.0389971733093 0.0183936 -0.610983 -1.98511 -0.176782 -0.14009 -0.0091551
0.0399971008301 0.0176402 -0.613144 -1.98511 -0.176813 -0.140024 -0.00913196
0.0409970283508 0.0157399 -0.616117 -1.98511 -0.17683 -0.139977 -0.00911569
0.0419969558716 0.0132567 -0.619374 -1.98511 -0.176837 -0.139947 -0.00910511
0.0429968833923 0.0105991 -0.622096 -1.98511 -0.176837 -0.13993 -0.00909905
0.0439968109131 0.00804323 -0.623802 -1.98511 -0.176832 -0.139922 -0.00909637
0.0449967384338 0.00575787 -0.624721 -1.98511 -0.176825 -0.139922 -0.00909607
0.0459966659546 0.00382959 -0.624152 -1.98511 -0.176835 -0.139964 -0.00909732
0.0469965934753 0.00228525 -0.621313 -1.98511 -0.176873 -0.140108 -0.00908639
0.0479965209961 0.0011112 -0.616792 -1.98511 -0.176926 -0.140343 -0.00905546
0.0489964485168 0.0011112 -0.616792 -1.98511 -0.176926 -0.140343 -0.00905546
0.0499963760376 -0.000292828 -0.607898 -1.98511 -0.177105 -0.140897 -0.00901613
0.0509963035583 -0.000292828 -0.607898 -1.98511 -0.177105 -0.140897 -0.00901613
0.0519962310791 -0.000629603 -0.604093 -1.98511 -0.177199 -0.141175 -0.00901687
0.0529961585999 -0.000629603 -0.604093 -1.98511 -0.177199 -0.141175 -0.00901687
0.0539960861206 -0.000629603 -0.604093 -1.98511 -0.177199 -0.141175 -0.00901687
0.0549960136414 -0.000629603 -0.604093 -1.98511 -0.177199 -0.141175 -0.00901687
0.0559959411621 -0.000629603 -0.604093 -1.98511 -0.177199 -0.141175 -0.00901687
0.0569958686829 -0.000795016 -0.600336 -1.98511 -0.177244 -0.141449 -0.00903822
0.0579957962036 -0.000837238 -0.597365 -1.98511 -0.177235 -0.14168 -0.00909723
0.0589957237244 -0.000797059 -0.596046 -1.98511 -0.177211 -0.141845 -0.00917565
0.0599956512451 -0.000707259 -0.596345 -1.98511 -0.177197 -0.141955 -0.00923407
0.0609955787659 -0.000592849 -0.597659 -1.98511 -0.177191 -0.142001 -0.00927497
0.0619955062866 -0.000471847 -0.599517 -1.98511 -0.177208 -0.141964 -0.0093275
0.0629954338074 -0.000356337 -0.601576 -1.98511 -0.177256 -0.141857 -0.00939634
0.0639953613281 0.000200849 -0.603598 -1.98511 -0.177321 -0.141714 -0.00947011
0.0649952888489 0.00145102 -0.605434 -1.98511 -0.177373 -0.141579 -0.00952804
0.0659952163696 0.00259073 -0.606549 -1.98511 -0.177377 -0.141499 -0.00954501
0.0669951438904 0.00311357 -0.606204 -1.98511 -0.177332 -0.141478 -0.00952128
0.0679950714111 0.00319876 -0.604496 -1.98511 -0.177258 -0.141499 -0.00947334
0.0689949989319 0.00319876 -0.604496 -1.98511 -0.177258 -0.141499 -0.00947334
0.0699949264526 0.00299644 -0.602052 -1.9876 -0.177155 -0.141543 -0.00942681
0.0709948539734 0.00299644 -0.602052 -1.9876 -0.177155 -0.141543 -0.00942681
0.0719947814941 0.00299644 -0.602052 -1.9876 -0.177155 -0.141543 -0.00942681
0.0729947090149 0.00299644 -0.602052 -1.9876 -0.177155 -0.141543 -0.00942681
0.0739946365356 0.00299644 -0.602052 -1.9876 -0.177155 -0.141543 -0.00942681
0.0749945640564 0.00308044 -0.599786 -1.99398 -0.177022 -0.1416 -0.00941106
0.0759944915771 0.0037958 -0.598724 -1.99986 -0.1769 -0.141659 -0.0094294
0.0769944190979 0.00440415 -0.598973 -2.00493 -0.176811 -0.141697 -0.00946812
0.0779943466187 0.00444052 -0.600044 -2.01157 -0.176734 -0.14166 -0.00951682
0.0789942741394 0.00410712 -0.601555 -2.0162 -0.176634 -0.141539 -0.00956798
0.0799942016602 0.00356335 -0.603227 -2.01667 -0.176528 -0.141413 -0.00961663
0.0809941291809 0.00292835 -0.604414 -2.01444 -0.176462 -0.141351 -0.00964668
0.0819940567017 0.00228585 -0.604287 -2.01065 -0.176445 -0.141355 -0.00964932
0.0829939842224 0.00169015 -0.602874 -2.00617 -0.176461 -0.141401 -0.00963415
0.0839939117432 0.00117232 -0.600748 -2.00409 -0.176479 -0.141469 -0.00959572
0.0849938392639 0.000746032 -0.598337 -2.00871 -0.176461 -0.141547 -0.00954545
0.0859937667847 0.000746032 -0.598337 -2.00871 -0.176461 -0.141547 -0.00954545
0.0869936943054 0.000412701 -0.595937 -2.01975 -0.176402 -0.141625 -0.00950471
0.0879936218262 0.000165765 -0.593736 -2.03401 -0.176323 -0.141677 -0.00947334
0.0889935493469 -5.92474e-06 -0.591385 -2.04919 -0.176219 -0.14167 -0.00945051
0.0899934768677 -0.000115562 -0.588674 -2.06375 -0.176089 -0.141606 -0.00942191
0.0909934043884 -0.000176594 -0.586404 -2.07674 -0.175971 -0.141511 -0.00937884
0.0919933319092 -0.000201551 -0.585052 -2.08767 -0.175853 -0.141404 -0.00934301
0.0929932594299 -0.000201551 -0.585052 -2.08767 -0.175853 -0.141404 -0.00934301
0.0939931869507 -0.000201366 -0.584398 -2.09641 -0.175671 -0.141297 -0.00935394
0.0949931144714 -0.000185071 -0.58379 -2.10055 -0.175409 -0.141218 -0.0094332
0.0959930419922 -0.000159753 -0.582353 -2.09892 -0.175063 -0.141203 -0.00956299
0.0969929695129 -0.000130681 -0.580045 -2.09371 -0.174654 -0.141248 -0.00971476
0.0979928970337 -0.000101538 -0.577364 -2.08663 -0.174239 -0.141329 -0.00986844
0.0989928245544 -7.46902e-05 -0.574205 -2.07892 -0.173852 -0.141426 -0.00999791
0.0999927520752 -5.14711e-05 -0.570086 -2.06893 -0.173533 -0.141526 -0.0100884
0.100992679596 -3.24447e-05 -0.565228 -2.05579 -0.1733 -0.141619 -0.0101466
0.101992607117 -1.76357e-05 -0.56074 -2.04417 -0.173161 -0.141681 -0.0101664
0.102992534637 -6.72117e-06 -0.557304 -2.03696 -0.173109 -0.1417 -0.0101599
0.103992462158 8.18807e-07 -0.554364 -2.03067 -0.173101 -0.141708 -0.0101632
0.104992389679 5.58881e-06 -0.55198 -2.02297 -0.173103 -0.141728 -0.0101857
0.1059923172 5.58881e-06 -0.55198 -2.02297 -0.173103 -0.141728 -0.0101857
0.10699224472 8.19909e-06 -0.550596 -2.01499 -0.173111 -0.141754 -0.0102055
0.107992172241 9.21453e-06 -0.549966 -2.00747 -0.173123 -0.141781 -0.0101959
0.108992099762 9.21453e-06 -0.549966 -2.00747 -0.173123 -0.141781 -0.0101959
0.109992027283 9.21453e-06 -0.549966 -2.00747 -0.173123 -0.141781 -0.0101959
0.110991954803 9.21453e-06 -0.549966 -2.00747 -0.173123 -0.141781 -0.0101959
0.111991882324 9.12556e-06 -0.54987 -2.00085 -0.173172 -0.141827 -0.0101551
0.112991809845 8.3354e-06 -0.54967 -1.99535 -0.173313 -0.14192 -0.0100977
0.113991737366 7.15902e-06 -0.548511 -1.99099 -0.173538 -0.142073 -0.0100341
0.114991664886 5.82944e-06 -0.546377 -1.98772 -0.173798 -0.142291 -0.00997169
0.115991592407 4.50841e-06 -0.543788 -1.98542 -0.174079 -0.142553 -0.00991508
0.116991519928 3.29899e-06 -0.541116 -1.98392 -0.174385 -0.142822 -0.00986671
0.117991447449 2.25831e-06 -0.539059 -1.98305 -0.174702 -0.143074 -0.00982753
0.118991374969 1.40945e-06 -0.538016 -1.98266 -0.175 -0.143275 -0.00979738
0.11999130249 7.51805e-07 -0.537707 -1.98261 -0.175262 -0.14339 -0.00977545
0.120991230011 2.69629e-07 -0.537893 -1.98277 -0.17548 -0.143419 -0.00976054
0.121991157532 -6.12761e-08 -0.538383 -1.98307 -0.175652 -0.143393 -0.00975135
0.122991085052 -6.12761e-08 -0.538383 -1.98307 -0.175652 -0.143393 -0.00975135
0.123991012573 -2.6858e-07 -0.539481 -1.98342 -0.175781 -0.143332 -0.00974655
0.124990940094 -3.79959e-07 -0.541789 -1.98378 -0.175872 -0.143255 -0.00974496
0.125990867615 -3.79959e-07 -0.541789 -1.98378 -0.175872 -0.143255 -0.00974496
0.126990795135 -3.79959e-07 -0.541789 -1.98378 -0.175872 -0.143255 -0.00974496
0.127990722656 -3.79959e-07 -0.541789 -1.98378 -0.175872 -0.143255 -0.00974496
0.128990650177 -3.79959e-07 -0.541789 -1.98378 -0.175872 -0.143255 -0.00974496
0.129990577698 -4.20868e-07 -0.544688 -1.98412 -0.175931 -0.143172 -0.00973248
0.130990505219 -4.13296e-07 -0.547279 -1.98442 -0.175965 -0.143094 -0.00968787
0.131990432739 -3.75238e-07 -0.549919 -1.98467 -0.17598 -0.143024 -0.00961316
0.13299036026 -3.20685e-07 -0.552377 -1.98486 -0.175982 -0.142965 -0.00952515
0.133990287781 -2.59936e-07 -0.554068 -1.985 -0.175957 -0.142899 -0.00943568
0.134990215302 -2.00093e-07 -0.555584 -1.98511 -0.175899 -0.142814 -0.00935246
0.135990142822 -1.45638e-07 -0.557322 -1.98517 -0.175843 -0.142743 -0.00929301
0.136990070343 -9.90138e-08 -0.55906 -1.98521 -0.17581 -0.142706 -0.00926665
0.137989997864 -6.11572e-08 -0.560661 -1.98522 -0.175794 -0.142694 -0.00925056
0.138989925385 -6.11572e-08 -0.560661 -1.98522 -0.175794 -0.142694 -0.00925056
0.139989852905 -3.19649e-08 -0.562044 -1.98523 -0.175792 -0.142699 -0.00924235
0.140989780426 -1.06744e-08 -0.563176 -1.98522 -0.175797 -0.142714 -0.00925293
0.141989707947 3.83771e-09 -0.564057 -1.9852 -0.175808 -0.142735 -0.00926163
0.142989635468 1.28368e-08 -0.564706 -1.98519 -0.17582 -0.142758 -0.00925535
0.143989562988 1.28368e-08 -0.564706 -1.98519 -0.17582 -0.142758 -0.00925535
0.144989490509 1.28368e-08 -0.564706 -1.98519 -0.17582 -0.142758 -0.00925535
0.14598941803 1.28368e-08 -0.564706 -1.98519 -0.17582 -0.142758 -0.00925535
0.146989345551 1.75772e-08 -0.565153 -1.98517 -0.175833 -0.142779 -0.00923998
0.147989273071 1.92054e-08 -0.565436 -1.98516 -0.175846 -0.142799 -0.00922
0.148989200592 1.87068e-08 -0.565136 -1.98514 -0.175857 -0.142816 -0.00919867
0.149989128113 1.68842e-08 -0.563579 -1.98513 -0.175866 -0.142829 -0.00919127
0.150989055634 1.4359e-08 -0.560887 -1.98512 -0.175873 -0.14284 -0.00920647
0.151988983154 1.15859e-08 -0.557683 -1.98512 -0.175878 -0.142847 -0.00923495
0.152988910675 8.87663e-09 -0.554408 -1.98511 -0.175882 -0.142852 -0.00926964
0.153988838196 6.42595e-09 -0.55135 -1.98511 -0.175867 -0.142855 -0.00930554
0.154988765717 4.33798e-09 -0.548678 -1.98511 -0.175822 -0.142857 -0.00935241
0.155988693237 2.65038e-09 -0.546014 -1.98511 -0.17578 -0.142857 -0.00940254
0.156988620758 1.35512e-09 -0.543114 -1.98511 -0.175761 -0.142857 -0.00942459
0.157988548279 4.15539e-10 -0.540751 -1.98511 -0.175741 -0.142837 -0.00941379
0.1589884758 -2.20443e-10 -0.539375 -1.98511 -0.175685 -0.142768 -0.00938278
0.15998840332 -2.20443e-10 -0.539375 -1.98511 -0.175685 -0.142768 -0.00938278
0.160988330841 -6.10623e-10 -0.538744 -1.98511 -0.175576 -0.142653 -0.0093413
0.161988258362 -8.11811e-10 -0.53864 -1.98511 -0.175403 -0.142518 -0.00929645
0.162988185883 -8.11811e-10 -0.53864 -1.98511 -0.175403 -0.142518 -0.00929645
0.163988113403 -8.11811e-10 -0.53864 -1.98511 -0.175403 -0.142518 -0.00929645
0.164988040924 -8.11811e-10 -0.53864 -1.98511 -0.175403 -0.142518 -0.00929645
0.165987968445 -8.75628e-10 -0.539337 -1.98511 -0.175187 -0.142381 -0.00927917
0.166987895966 -8.46215e-10 -0.5414 -1.98511 -0.174961 -0.142254 -0.00933328
0.167987823486 -7.59372e-10 -0.544627 -1.98511 -0.174745 -0.142143 -0.00945496
0.168987751007 -0.000454478 -0.548341 -1.98511 -0.174536 -0.142052 -0.00961021
0.169987678528 -0.0016184 -0.552069 -1.98511 -0.174312 -0.141981 -0.00977452
0.170987606049 -0.00268935 -0.555507 -1.9876 -0.174096 -0.141909 -0.00993143
0.171987533569 -0.00316017 -0.558937 -1.99648 -0.173939 -0.141803 -0.010071
0.17298746109 -0.00320825 -0.562993 -2.01122 -0.17385 -0.141666 -0.0101882
0.173987388611 -0.00298136 -0.56758 -2.02855 -0.173812 -0.141519 -0.0102817
0.174987316132 -0.00259635 -0.572138 -2.04614 -0.17381 -0.141377 -0.0103525
0.175987243652 -0.00259635 -0.572138 -2.04614 -0.17381 -0.141377 -0.0103525
0.176987171173 -0.00167672 -0.579904 -2.07672 -0.173865 -0.141144 -0.0104364
0.177987098694 -0.00167672 -0.579904 -2.07672 -0.173865 -0.141144 -0.0104364
0.178987026215 -0.00124436 -0.582834 -2.08596 -0.173887 -0.141078 -0.0104693
0.179986953735 -0.0008671 -0.585105 -2.08877 -0.173899 -0.141082 -0.0105122
0.180986881256 -0.0008671 -0.585105 -2.08877 -0.173899 -0.141082 -0.0105122
0.181986808777 -0.0008671 -0.585105 -2.08877 -0.173899 -0.141082 -0.0105122
0.182986736298 -0.0008671 -0.585105 -2.08877 -0.173899 -0.141082 -0.0105122
0.183986663818 -0.000555487 -0.58677 -2.08973 -0.17394 -0.14113 -0.0105451
0.184986591339 -0.000311009 -0.587913 -2.08941 -0.173978 -0.141184 -0.0105428
0.18598651886 -0.000129229 -0.588175 -2.08581 -0.173975 -0.141236 -0.010505
0.186986446381 -2.26218e-06 -0.587397 -2.08288 -0.173964 -0.141265 -0.0104605
0.187986373901 7.93498e-05 -0.586469 -2.08312 -0.173967 -0.141257 -0.0104284
0.188986301422 0.000125317 -0.586427 -2.08537 -0.173979 -0.141225 -0.0104068
0.189986228943 0.000144731 -0.587864 -2.08872 -0.173995 -0.141182 -0.0103937
0.190986156464 0.000145556 -0.590135 -2.09252 -0.173995 -0.141134 -0.0103871
0.191986083984 0.000134392 -0.59185 -2.09629 -0.173948 -0.141087 -0.0103852
0.192986011505 0.000116435 -0.593071 -2.09974 -0.173857 -0.141025 -0.0103995
0.193985939026 9.55654e-05 -0.594331 -2.10023 -0.173728 -0.14094 -0.0104362
0.194985866547 7.45033e-05 -0.594606 -2.09627 -0.173529 -0.140865 -0.0104712
0.195985794067 7.45033e-05 -0.594606 -2.09627 -0.173529 -0.140865 -0.0104712
0.196985721588 5.501e-05 -0.592413 -2.08979 -0.173248 -0.140842 -0.0104892
0.197985649109 3.80888e-05 -0.587904 -2.08221 -0.17292 -0.140873 -0.0104948
0.19898557663 3.80888e-05 -0.587904 -2.08221 -0.17292 -0.140873 -0.0104948
0.19998550415 3.80888e-05 -0.587904 -2.08221 -0.17292 -0.140873 -0.0104948
0.200985431671 3.80888e-05 -0.587904 -2.08221 -0.17292 -0.140873 -0.0104948
0.201985359192 2.41765e-05 -0.582726 -2.07453 -0.172622 -0.140917 -0.0104791
0.202985286713 1.33117e-05 -0.577989 -2.06491 -0.172441 -0.140965 -0.0104378
0.203985214233 5.27417e-06 -0.573916 -2.05233 -0.172385 -0.141052 -0.0103964
0.204985141754 -3.04423e-07 -0.570595 -2.03886 -0.172414 -0.141175 -0.0103584
0.205985069275 -3.8578e-06 -0.56757 -2.02591 -0.172513 -0.141311 -0.0102995
0.206984996796 -5.82686e-06 -0.564069 -2.01432 -0.172685 -0.141464 -0.0102187
0.207984924316 -6.62163e-06 -0.560545 -2.00455 -0.172908 -0.141636 -0.0101305
0.208984851837 -6.59941e-06 -0.557743 -1.99671 -0.173146 -0.141785 -0.0100445
0.209984779358 -6.05501e-06 -0.555175 -1.99076 -0.173374 -0.14189 -0.00996697
0.210984706879 -5.21944e-06 -0.552509 -1.98649 -0.173596 -0.141957 -0.00988792
0.211984634399 -5.21944e-06 -0.552509 -1.98649 -0.173596 -0.141957 -0.00988792
0.21298456192 -4.26425e-06 -0.549995 -1.98363 -0.173849 -0.142014 -0.00978813
0.213984489441 -3.30907e-06 -0.54778 -1.98192 -0.174158 -0.142099 -0.00966998
0.214984416962 -2.43064e-06 -0.545935 -1.98108 -0.174494 -0.142213 -0.00956262
0.215984344482 -2.43064e-06 -0.545935 -1.98108 -0.174494 -0.142213 -0.00956262
0.216984272003 -2.43064e-06 -0.545935 -1.98108 -0.174494 -0.142213 -0.00956262
0.217984199524 -2.43064e-06 -0.545935 -1.98108 -0.174494 -0.142213 -0.00956262
0.218984127045 -1.67199e-06 -0.544475 -1.98087 -0.174821 -0.142319 -0.00948387
0.219984054565 -1.05112e-06 -0.54338 -1.98107 -0.175116 -0.142371 -0.00941674
0.220983982086 -5.68479e-07 -0.542607 -1.98153 -0.175367 -0.142366 -0.00934936
0.221983909607 -2.1327e-07 -0.542556 -1.98211 -0.175587 -0.142325 -0.00928725
0.222983837128 3.16771e-08 -0.54388 -1.98521 -0.175806 -0.142245 -0.0092335
0.223983764648 1.86229e-07 -0.546434 -1.99467 -0.176025 -0.142107 -0.00918943
0.224983692169 2.70391e-07 -0.549118 -2.00744 -0.176208 -0.141943 -0.00915511
0.22598361969 3.02647e-07 -0.550761 -2.01633 -0.176317 -0.141815 -0.0091298
0.226983547211 2.99022e-07 -0.55115 -2.01953 -0.176352 -0.141739 -0.0091123
0.227983474731 2.72675e-07 -0.550705 -2.01881 -0.176337 -0.141703 -0.00910122
0.228983402252 2.33873e-07 -0.550214 -2.01564 -0.176309 -0.141694 -0.00909514
0.229983329773 1.90199e-07 -0.550187 -2.01116 -0.176292 -0.141705 -0.00909277
0.230983257294 1.90199e-07 -0.550187 -2.01116 -0.176292 -0.141705 -0.00909277
0.231983184814 1.4691e-07 -0.55046 -2.00619 -0.176285 -0.141727 -0.00909295
0.232983112335 1.07344e-07 -0.551357 -2.00131 -0.176284 -0.141754 -0.00908169
0.233983039856 7.33452e-08 -0.552582 -1.99688 -0.176269 -0.141782 -0.00905092
0.234982967377 4.56479e-08 -0.553465 -1.99309 -0.176265 -0.141809 -0.00902318
0.235982894897 4.56479e-08 -0.553465 -1.99309 -0.176265 -0.141809 -0.00902318
0.236982822418 4.56479e-08 -0.553465 -1.99309 -0.176265 -0.141809 -0.00902318
0.237982749939 4.56479e-08 -0.553465 -1.99309 -0.176265 -0.141809 -0.00902318
0.23898267746 2.42172e-08 -0.554059 -1.99002 -0.176303 -0.141833 -0.00901269
0.23998260498 8.52714e-09 -0.553964 -1.98766 -0.17633 -0.141853 -0.0090141
0.240982532501 -2.22073e-09 -0.552982 -1.98594 -0.176329 -0.141869 -0.00903611
0.241982460022 -8.9355e-09 -0.551964 -1.98477 -0.176347 -0.141881 -0.00909572
0.242982387543 -1.25242e-08 -0.551912 -1.98405 -0.176393 -0.14189 -0.00917464
0.243982315063 -1.38197e-08 -0.552939 -1.98367 -0.176454 -0.141895 -0.00923346
0.244982242584 -1.35404e-08 -0.55412 -1.98354 -0.176501 -0.141918 -0.00927467
0.245982170105 -1.22735e-08 -0.554397 -1.98359 -0.1765 -0.141988 -0.00931434
0.246982097626 -1.0475e-08 -0.553619 -1.98374 -0.176449 -0.142102 -0.00933677
0.247982025146 -8.48007e-09 -0.552227 -1.98395 -0.176371 -0.142236 -0.00933326
0.248981952667 -6.51936e-09 -0.550098 -1.98417 -0.176282 -0.142371 -0.0093134
0.249981880188 -4.73814e-09 -0.547214 -1.98439 -0.176193 -0.142496 -0.00928465
0.250981807709 -4.73814e-09 -0.547214 -1.98439 -0.176193 -0.142496 -0.00928465
0.251981735229 -3.21512e-09 -0.544531 -1.98459 -0.17611 -0.142604 -0.00925251
0.25298166275 -1.98004e-09 -0.542647 -1.98476 -0.176039 -0.142694 -0.00922077
0.253981590271 -1.02886e-09 -0.541427 -1.9849 -0.175981 -0.142764 -0.00919184
0.254981517792 -3.36171e-10 -0.54073 -1.985 -0.175936 -0.142816 -0.00916704
0.255981445312 -3.36171e-10 -0.54073 -1.985 -0.175936 -0.142816 -0.00916704
0.256981372833 -3.36171e-10 -0.54073 -1.985 -0.175936 -0.142816 -0.00916704
